# Neutrino decoupling history, from Cosmic.neff().
# N_eff = 3.042810343091757
# ln a   T_gamma [MeV]   T_nue [MeV]   T_numu [MeV]
0.0  10.0  10.0  10.0
0.0017819230524077424  9.982198519029776  9.982197019417512  9.982196768017637
0.002604496111374569  9.973991571265936  9.973989641873743  9.97398920707845
0.0041986481700268365  9.958105531877413  9.958103020157624  9.958102243589169
0.005545575919326593  9.944702761790788  9.944699918534642  9.944698901502496
0.007435595194769047  9.925926207542059  9.925923045584742  9.925921772471241
0.00942996708900981  9.906151314378564  9.906147930563996  9.90614647056942
0.01199746114026563  9.880751635981444  9.880748068359965  9.880746453408522
0.014952297698239496  9.851600628965167  9.851596901893936  9.851595177576312
0.01723496783283825  9.829139794758605  9.829135970842138  9.829134182320063
0.02038451512195787  9.79823315547426  9.798229243242927  9.79822739304923
0.02380995760839455  9.764729445953051  9.76472546589098  9.764723571630618
0.028386613688521117  9.720144609702704  9.720140559029844  9.720138624045722
0.03374004717085572  9.668250838908971  9.66824671673654  9.668244744735631
0.04029956232037231  9.605043500561472  9.605039241884036  9.605037219376843
0.044690635930721534  9.562962335794657  9.562957992467874  9.562955921526733
0.04953146869205378  9.51678460076574  9.51678018247992  9.516778071311593
0.05527388808512074  9.462295511017818  9.462291011999982  9.462288860363458
0.06202132948662206  9.398668522259161  9.398663874290305  9.398661667741457
0.06696187398575001  9.352351755248492  9.352347005563406  9.352344741660655
0.07201638885980759  9.30520273765232  9.305197903423242  9.305195594950254
0.07801658697620698  9.249540777526448  9.249535851413736  9.249533497151774
0.08501516245400237  9.185037819377198  9.185032727868698  9.185030312316863
0.09017600649696429  9.137760867261116  9.13775566054934  9.13775318103839
0.09544481762610667  9.089745887674317  9.089740584697948  9.089738054589333
0.10177733738959958  9.032371013119418  9.032365603849083  9.032363020825985
0.10928253642635113  8.9648401432375  8.964834543993206  8.964831889787881
0.11466360611046898  8.916733002158614  8.916727273150837  8.91672454766005
0.12025601072129233  8.86701005771532  8.867004217140645  8.867001433141278
0.12701306815590133  8.807301782465949  8.807295817365688  8.807292971531702
0.13517832938453805  8.73568637380359  8.735680186757861  8.735677256787465
0.14084048583013314  8.686367343391497  8.686361008741812  8.686357998384592
0.1468357271945698  8.634450511826438  8.634444046263178  8.63444096753302
0.15408854735315175  8.572058068287276  8.57205145547248  8.572048303891384
0.15703161104016802  8.546869202836318  8.546862467461564  8.546859278240028
0.15903814365671387  8.529738296012255  8.529731492758343  8.529728271648636
0.16344004118855757  8.492276989594531  8.492270062804765  8.49226677604308
0.16710009367131665  8.46125428355633  8.461247266695484  8.461243932068243
0.17303783573555567  8.411166707207832  8.41115955451087  8.411156150675763
0.17980377447017215  8.35445434302318  8.354446970663295  8.354443484066463
0.18403759476563453  8.31916103193925  8.319153516284747  8.31914995837072
0.18953449099780612  8.273561023043825  8.273553354281496  8.273549714698799
0.19560007341910016  8.223533459474066  8.223525637799597  8.22352192010172
0.20382981291319346  8.156139857851487  8.156131752119512  8.156127924033216
0.2089960719384709  8.1141157531121  8.11410746691805  8.114103546527364
0.2152661645759458  8.063403455603854  8.063394985135993  8.063390967723983
0.22248988046981397  8.005371104897037  8.005362438520198  8.005358322909112
0.22805612916797138  7.960939324602161  7.960930445412478  7.960926251645807
0.23171344975775623  7.931879688728219  7.931870654251797  7.9318663903983815
0.2371124243085655  7.889175314411412  7.8891660909787555  7.8891617286923585
0.24253740145734354  7.846496854530777  7.846487461106815  7.846483010917569
0.25010571398399883  7.787342293049214  7.7873325882170645  7.787328015237588
0.2547868113999004  7.7509779664493275  7.750968059490102  7.7509633885443225
0.2611074996478345  7.702146049458724  7.702135912913252  7.702131121629941
0.2678052052947857  7.650737096439113  7.650726737445047  7.650721833264933
0.27506399015243294  7.595409041670513  7.595398362521433  7.59539333446794
0.2795871996879273  7.561134761151762  7.56112386719207  7.561118738714264
0.28599913695993645  7.512813644155006  7.512802492633624  7.512797230852538
0.292549808027221  7.46376592009571  7.463754527947136  7.463749144039273
0.2994196373134081  7.412672606250051  7.412660883688821  7.412655371459538
0.30369155849004664  7.381077447994064  7.381065500402114  7.381059886193722
0.31014671632320384  7.333590366774671  7.333578130601223  7.333572368710823
0.3164683556170491  7.28738164101652  7.287369147202116  7.287363254254201
0.32223165566952366  7.245508037125952  7.245495239192738  7.245489228156095
0.32585647803154444  7.21929508867407  7.219282074754163  7.219275971211838
0.33203910308548945  7.1748039926101965  7.174790665716238  7.17478440548736
0.3377007050638806  7.134302814932133  7.134289229322143  7.13428283679842
0.3440324945118401  7.0892782274152735  7.089264278792843  7.089257741260821
0.34787992567020337  7.062058594502884  7.0620444002183875  7.062037755750122
0.3544609496272391  7.01574151630743  7.015726962273446  7.015720137490343
0.36045583908286244  6.973814101214858  6.973799249796772  6.973792273503724
0.3635621056979706  6.952187964395611  6.952172964492599  6.952165913827099
0.3695752484942193  6.910514365911821  6.910498997357694  6.910491801720184
0.37217098445056584  6.892602166857005  6.892586613994794  6.892579343210531
0.3782544188095786  6.85080437286739  6.850788442763202  6.850780991567474
0.38306217736441106  6.81795083531515  6.817934635633612  6.817927048258909
0.38963226593137956  6.773309155845696  6.773292606874259  6.773284844483395
0.394142748272843  6.742831356696391  6.742814441946271  6.742806549157554
0.3968268134472828  6.72475998174709  6.724742870665425  6.724734891321335
0.403429884759531  6.680508446109649  6.680490903148919  6.680482712392074
0.4085699707367565  6.646263015868365  6.646245163771362  6.6462368171987904
0.4140205974026331  6.610140500008997  6.610122248082618  6.610113739490281
0.417081108855543  6.589944017361221  6.589925507973338  6.589916894838767
0.423757305053069  6.546101300038049  6.546082298946932  6.546073452019185
0.42917528409603617  6.510735829727018  6.510716466684518  6.510707438066929
0.43354346356037116  6.48236203113145  6.482342388726411  6.482333220319966
0.4385848173012536  6.449769360712383  6.449749322026826  6.449739994214541
0.44103362645702954  6.433996899097924  6.433976635307257  6.433967219834907
0.4474729362577218  6.392705960105704  6.392685170724121  6.392675514644032
0.45232694374553223  6.361755757943304  6.361734608417259  6.3617247746429975
0.4600766192479906  6.3126524750412205  6.3126307815581955  6.312620677885227
0.4650224976249366  6.281513055991818  6.281490865770744  6.281480580162291
0.4681913051685222  6.261642929930712  6.261620447053898  6.261610034066196
0.47573429518690474  6.214596857347248  6.2145737424725676  6.214563026370364
0.4816800131931094  6.17776234369146  6.177738765423767  6.177727820225399
0.4884000174655039  6.136393960955718  6.136369741093081  6.136358535995556
0.49224176720410623  6.11286878211889  6.112844169811414  6.1128327998534955
0.5002676619303952  6.064012376313246  6.063987026431893  6.063975307725814
0.5069038651596967  6.023910584923855  6.023884668936196  6.023872672450743
0.5118495406847378  5.994197233553455  5.9941707363965655  5.9941585236894666
0.5148933077376219  5.975983361673291  5.9759565301901665  5.97594417432726
0.5226319180538197  5.929924447673103  5.929896837850973  5.929884115643409
0.5286026739411108  5.894630284333425  5.894602114238518  5.894589118091467
0.5325674249600467  5.87131018736684  5.8712815822740865  5.871268407302073
0.534815058140642  5.8581309929756005  5.858102100313996  5.858088816674751
0.5418237790322398  5.817224397292594  5.817194689373873  5.817181050038773
0.5467922474197198  5.788398943149705  5.788368703788494  5.788354811898193
0.5509887153423606  5.764163697534249  5.764133026897047  5.764118925914409
0.5531931075366765  5.751473677556849  5.751442784861998  5.751428575890495
0.5587505729660636  5.7196051368895295  5.719573492362891  5.71955899743552
0.5611627851795329  5.705827656251968  5.705795700989591  5.705781074481422
0.5690361482979565  5.661089054531493  5.661056156547886  5.661041096054091
0.5745561412008408  5.629932314417059  5.629898795958393  5.629883437018781
0.5769569151911622  5.616435090348224  5.616401308377852  5.616385822039817
0.5826335733851861  5.5846495781578875  5.584614970583927  5.584599169449016
0.5850901441492342  5.570950255743655  5.570915306311435  5.570899361294244
0.5932304695527878  5.525794628452861  5.52575862151331  5.5257421940294895
0.5989692170579934  5.494181090434736  5.494144381397959  5.494127619176978
0.6023769736544121  5.475494223410906  5.475457038365754  5.475440079572834
0.6042218870000206  5.465403995183469  5.465366511561104  5.4653494415947215
0.6114486355905471  5.426058110773803  5.426019542739746  5.426002016870512
0.616732022822879  5.397472190100625  5.397432886349138  5.397415022590018
0.6205358783335386  5.376984621420468  5.376944806622881  5.376926701931386
0.623334833772884  5.361959133151117  5.361918949458278  5.361900669452691
0.6290000926578246  5.331675193273851  5.331634112051264  5.331615472840241
0.6316305729930722  5.317672082214218  5.317630561629643  5.31761174696416
0.6398713316787705  5.27404085157793  5.273998044445525  5.27397866568693
0.6458064687338715  5.242838847276663  5.242795167652056  5.242775383522403
0.647890844475389  5.231924798154579  5.231880818968847  5.231860893960123
0.653466114242717  5.202843805237875  5.2027988026804275  5.20277848834197
0.6560201950726238  5.1895756004222795  5.189530144397901  5.189509643652256
0.664625903267797  5.145118371800164  5.145071474852521  5.145050335985625
0.6709328574056067  5.1127786038858405  5.112730706083713  5.11270910272838
0.6760888403684463  5.086491941474212  5.086443021780777  5.086421030326251
0.6789235466843067  5.072097447773752  5.072047981341188  5.072025767670854
0.6882503287469645  5.0250234458601595  5.024972285022488  5.024949327006256
0.6948554712121237  4.9919506075887545  4.991898308907502  4.991874826702591
0.7010539473922823  4.961112353268587  4.961058739609965  4.961034753796183
0.7045134202451971  4.943983945565625  4.943929621547504  4.943905343226972
0.7147794767564745  4.89350243649588  4.893446119735723  4.893420962053949
0.7173953389515677  4.880722027608362  4.880665221939722  4.880639841152752
0.7234286534466184  4.8513722160613355  4.85131410824792  4.851288208033711
0.7260963459418368  4.838451294047145  4.838392579529225  4.838366441212498
0.7356649837506285  4.792388243986219  4.792327468086834  4.79230045481456
0.7426087006138209  4.759236333506384  4.759174135793486  4.759146485278705
0.7490841451775896  4.728527198424314  4.728463401987663  4.72843514347525
0.7526722668122822  4.711596330350976  4.711531672803622  4.711503065152509
0.7637438760464421  4.659735210749394  4.659668027154488  4.65963832670946
0.7653882892561142  4.652081378487312  4.652013831633306  4.651983969023897
0.770329515673736  4.629158547921656  4.629089677253987  4.629059318117088
0.7724679911015585  4.6192730225178735  4.619203585776929  4.619173005661849
0.782117339896037  4.574928927941683  4.574857048626106  4.574825450653874
0.789465980900421  4.541443685349776  4.541370030158417  4.5413376523653595
0.7961700475657978  4.51110979685308  4.511034223876488  4.511001120273329
0.7998442034478505  4.494571415698825  4.494494815911875  4.494461302032971
0.811696204751722  4.441634532481516  4.441554767275632  4.441519910560873
0.8175516624682548  4.415712062657021  4.41563053788759  4.415595007884398
0.8228795013781376  4.392256987779314  4.392173842160095  4.392137679478343
0.8341909864711409  4.342872055307921  4.342785629715771  4.342748097211919
0.8358916850432883  4.335495142724689  4.335408237422813  4.335370498343963
0.8400805439492899  4.31737929165671  4.317290986170028  4.317252731723805
0.8419025121598467  4.309523356837268  4.309434444363686  4.309395961226617
0.851506183299518  4.268350092057635  4.2682580929720215  4.268218378701476
0.859402009451175  4.234793678838082  4.234699244190111  4.234658505132279
0.8632925860777917  4.218356490553747  4.218260718276183  4.218219470998107
0.8656046592829902  4.208618578098186  4.208521973667751  4.208480418902687
0.8756526935281468  4.166559129346219  4.166459037921153  4.166416114707484
0.883853499112417  4.132543685503291  4.1324408594864  4.132396803166275
0.8900425399074547  4.107057103366776  4.106951902758502  4.106906976598551
0.8934103129447609  4.0932546906801965  4.093148213743063  4.093102803072635
0.9062730377246558  4.040964046674285  4.040852868936662  4.040805574289696
0.9108490945060135  4.02252286884975  4.022409872258161  4.02236189885315
0.9139993498409442  4.009876595961736  4.009762294459977  4.009713844831223
0.9264041975420303  3.9604644671620903  3.9603452130847216  3.9602948428359808
0.9288530943629095  3.9507820266722353  3.950661821397404  3.9506110676786212
0.9302618262799635  3.9452229197821436  3.945102170355547  3.945051195809402
0.9335891140234495  3.9321240640854387  3.932001875035112  3.9319503758855587
0.9353815047316956  3.9250858636399846  3.9249628717297913  3.9249110863359404
0.9428649070090561  3.8958365889365267  3.895710321156691  3.89565731888244
0.9509763492137628  3.864378791851591  3.8642490814551445  3.864194736614177
0.9531693808254579  3.8559175007559197  3.8557868743345924  3.8557321644777947
0.9583811568311644  3.83588362966086  3.835750613204569  3.835695029459039
0.9606398695121054  3.827233657139932  3.827099563006835  3.8270435945144357
0.9725695682402751  3.781870304504664  3.7817306817200387  3.781672638384279
0.9776191311829748  3.76283145409108  3.7626895542260588  3.762630620774339
0.980664546451322  3.7513956223536056  3.7512521632138474  3.751192688494605
0.9819948151427539  3.746411260755245  3.746267117136242  3.7462074035368094
0.9888413443480363  3.720862716790239  3.720715111167482  3.720654150019527
0.9971734129508877  3.6900057423028  3.6898540340920327  3.6897915279788065
1.000104592130553  3.679211399463242  3.6790582703995076  3.6789952169029934
1.0015828934693451  3.6737794057831574  3.673625563804878  3.673562233801979
1.0049539448009845  3.661422758288388  3.661267070386431  3.661203105434392
1.0064769318519726  3.655853877702095  3.655697353476907  3.6556330986685026
1.0154365683060491  3.623263639486141  3.623102290526657  3.6230363028685164
1.0247620768535701  3.5896512310162767  3.589484994756657  3.589417172959536
1.0276671415007177  3.579244428275268  3.5790764897554865  3.579008090888764
1.0292271192429883  3.5736686001437534  3.573499742782818  3.573431031188025
1.040843395032091  3.532420924738599  3.532245377980875  3.5321742928608364
1.0479000576261275  3.5075966830355636  3.507417174992116  3.50734462420193
1.051684062612385  3.4943573433752624  3.4941755102851904  3.494102166780055
1.0540666613225769  3.486046903994203  3.4858635751421856  3.4857897270158653
1.0655673496816884  3.4462100664588213  3.4460196700832015  3.445943341689558
1.068556157508747  3.4359320167224072  3.4357398173648095  3.4356628362069355
1.0706634804556316  3.42870369954097  3.4285102357105544  3.428432793032257
1.0719865746162984  3.424173138910017  3.4239788838007326  3.4239011509145687
1.0746290111423529  3.4151429798728223  3.4149469573305167  3.4148686420564673
1.075774727283278  3.4112350732853383  3.4110382793467657  3.4109597098022415
1.0815763162408478  3.3915151013166756  3.3913144437315768  3.391234572976515
1.0903450219327508  3.3619259817626714  3.3617195974461556  3.361637728251891
1.0953625693556739  3.345111105669763  3.344901492930045  3.344818469250759
1.0979684919669617  3.336411477904832  3.3362000537268597  3.3361164273419512
1.0992305596622884  3.332206359813361  3.3319940277726303  3.3319101076763284
1.1053129751459494  3.3120144390282427  3.3117977783779997  3.3117124274591108
1.1144284758366303  3.2819825227429407  3.2817594960926026  3.281671965911874
1.119591767115242  3.2650925977691014  3.2648660160534546  3.2647772395081898
1.1232649547708813  3.2531302954302355  3.252900919144416  3.252811249131508
1.1248489959757553  3.247985177191061  3.247754591496905  3.2476645330393885
1.1327980466395522  3.2222885942902058  3.2220520116808093  3.221959981148534
1.143012853513373  3.1895660497793927  3.189321904216832  3.189227300788381
1.1464194180702678  3.1787277002296066  3.1784807902293855  3.178385319895682
1.1482041742661178  3.1730640431823294  3.172815679460951  3.1727197514485432
1.158510184609426  3.140556417385461  3.1402997749282884  3.1402011676037342
1.1658838015868054  3.1175029915112504  3.1172405249431714  3.117139973757863
1.169185986755841  3.107234027087617  3.1069687224735683  3.1068672937943003
1.1706805659688682  3.1025974178058  3.102330814796102  3.1022289862828556
1.1841738387099918  3.0610496388724067  3.060771498518027  3.060666002198748
1.189595859572649  3.0445116860604053  3.044228986044788  3.04412199526586
1.1924506562589505  3.035840337026534  3.035555023753216  3.03544724140977
1.1936816524016978  3.0321088754419128  3.0318224238771316  3.031714298347419
1.200112398791563  3.0126901464064293  3.0123977964072686  3.0122878622376272
1.210232879900802  2.982381409228331  2.982079914679751  2.9819670934704994
1.2121052250474333  2.9768076695274064  2.9765044986005837  2.97639113937712
1.213335582121142  2.973150726646661  2.9728464564178774  2.9727327431526636
1.2155767536834508  2.966501102755159  2.9661946631522738  2.9660803031538547
1.2166580815802763  2.9632981163903462  2.9629906130253785  2.9628759396931033
1.2214364382138254  2.9491856044554416  2.948873428115014  2.948757360874428
1.2308297458767212  2.921638983542163  2.921317736148374  2.9211988935554416
1.2341235636518961  2.9120407110775672  2.9117163135157766  2.911596489480722
1.236351583569045  2.905566103747186  2.9052395831193425  2.9051190933877877
1.2371656838713767  2.9032039311800144  2.9028766362712837  2.9027559029778844
1.2391773297951143  2.897375408560484  2.8970460272688023  2.896924690629058
1.2400450088318506  2.8948650298708127  2.8945347422280814  2.894413144441224
1.2448494588772976  2.881004091917545  2.8806688124376385  2.8805457597415995
1.254402004988311  2.853641837176199  2.8532967505942226  2.8531707691805837
1.257926766542558  2.843611363900189  2.8432626923625297  2.843135621251544
1.2596443094084786  2.8387365195675702  2.838386106879802  2.838258503442128
1.2607351404239566  2.83564479510361  2.835293278423136  2.835165336497914
1.2624826977916301  2.8306989038549317  2.8303454642486745  2.83021697885506
1.2632428732712913  2.8285501791931154  2.8281958969001812  2.8280671744228014
1.2681870410717757  2.81461469904499  2.814254963465183  2.814124689903436
1.277500676655983  2.788549971929071  2.7881800780939283  2.7880468479755933
1.2806524906445107  2.7797842772692065  2.7794109748950184  2.779276736455963
1.2826839790637927  2.7741490106803814  2.7737735181834315  2.7736386282258874
1.284555920424203  2.7689664461467607  2.768588939977305  2.768453448697035
1.2869834667374709  2.7622603203675125  2.7618799830801772  2.7617437096452924
1.2880400155168206  2.759346682712683  2.7589651063412757  2.7588284912480896
1.2986055033103185  2.730378987662345  2.7299851309914005  2.7298450650850277
1.3063006321645096  2.709472833788323  2.7090701410972167  2.708927532387273
1.3076356792778518  2.7058621213527876  2.7054579034950725  2.7053148518343426
1.3095795339954803  2.700613601978958  2.700207030878616  2.7000633330964825
